Frequency,Nominal,Min,Max
1,339841.58048434166,283674.5057542174,424236.9637623221
1.02,333226.01632045786,278170.913733508,415956.2759416586
1.04,326865.8220934467,272880.1249533808,407994.80453375704
1.06,320746.5425014066,267790.0932347929,400334.4804870334
1.08,314854.7929982169,262889.66469545255,392958.57319448673
1.1,309178.1624521188,258168.49663197566,385851.5688169253
1.12,303705.12623373664,253616.98509323987,378999.061642988
1.15,295854.0740935098,247088.45925133777,369168.43683195615
1.18,288404.05711346254,240894.11667044566,359839.1160549769
1.2,283645.32262298896,236937.83398414205,353879.5039674068
1.22,279043.39751777577,233112.21990829182,348115.90827989543
1.25,272418.06160513835,227605.0806954354,339817.46334627253
1.28,266104.97022239194,222358.13152000873,331909.33499700844
1.3,262059.03613080745,218995.81886731664,326840.7474930639
1.32,258136.42998270201,215736.27316892165,321926.3249574117
1.35,252471.76957301184,211029.64989593287,314828.7617784468
1.38,247054.9544660054,206529.54962365556,308041.0169785633
1.4,243573.56746661972,203637.66032495606,303678.1392686176
1.42,240190.9186797755,200828.04609152733,299438.6897294109
1.45,235293.14127504826,196760.44165155894,293299.77043344604
1.48,230595.36870808963,192859.49216293995,287410.86975405255
1.5,227568.70740366675,190346.50617130328,283616.42691300425
1.55,220346.45414613394,184351.00943379707,274560.84520026675
1.6,213579.29607833823,178734.71223801066,266074.1696333188
1.65,207225.85492620667,173463.13135580707,258104.67847990367
1.7,201249.62028040882,168505.84012787364,250606.73483059296
1.75,195618.25418857567,163835.888957573,243539.9173388542
1.8,190303.0116488491,159429.32238922518,236868.2958377859
1.85,185278.25507748255,155264.77449808808,230559.82442442092
1.9,180521.04543948272,151323.12816619483,224585.83037283522
1.95,176010.79628225823,147587.2267773522,218920.58167601912
2,171728.97966424833,144041.62915794473,213540.919456479
2.05,167658.87511841272,140672.40038011165,208425.94417041866
2.1,163785.35447810404,137466.93245023157,203556.74663990428
2.15,160094.696727261,134413.7900176625,198916.1766154342
2.2,156574.42809832387,131502.5771232397,194488.6428981667
2.25,153213.18349044927,128723.82171467718,190259.94011252603
2.3,150000.5859636288,126068.87522521171,186217.09807369325
2.35,146927.14161655647,123529.82497202525,182348.25038478756
2.4,143984.1476047793,121099.4175048923,178642.51945940664
2.45,141163.61142194836,118770.99134073229,175089.9156230469
2.5,138458.1798673348,116538.41777003802,171681.24832235993
2.55,135861.07637012278,114396.04862727367,168408.04778038524
2.6,133366.0455455284,112338.6700877825,165262.49569157
2.7,128659.49676503478,108459.95994167616,159325.9590822773
2.75,126437.65808477715,106630.025820471,156522.07545045268
2.8,124297.17692733003,104867.81585598867,153819.94992250673
2.85,122233.76574155637,103169.75618260879,151214.2239275215
2.9,120243.43259725228,101532.51930529022,148699.908408943
2.95,118322.45613374011,99953.0032234624,146272.3525102278
3,116467.36301360962,98428.31264252933,143927.2153919295
3.05,114674.90759412953,96955.7420334221,141660.44082087933
3.1,112942.05356594849,95532.76033154796,139468.2342184815
3.15,111265.95734049557,94156.9970929795,137347.0418948895
3.2,109643.9529948169,92826.22994849634,135293.5322299814
3.3,106552.36382865615,90291.4675464437,131377.24380597126
3.4,103649.02274383577,87913.2479553004,127696.54581218235
3.5,100917.75286314372,85678.08502983449,124231.22297194046
3.6,98344.17400464299,83573.99018906464,120963.3056758297
3.7,95915.45991725824,81590.27011069111,117876.76652506614
3.9,91447.89555795504,77946.66127363888,112191.93017811772
4,89389.47429161306,76270.45535047447,109569.17904835106
4.1,87436.50325517872,74681.76272642211,107078.55750607878
4.2,85581.41203193336,73174.27147617619,104710.6069240626
4.32,83474.88045587052,71464.44410451932,102018.96845135184
4.45,81328.3640105468,69724.49392266841,99273.01273502031
4.58,79311.05444036919,68091.58375042479,96689.13169763448
4.75,76850.21311258808,66102.92762684889,93532.55064757373
4.88,75091.8469685056,64684.32944189989,91273.68327334849
5,73555.65507181491,63446.712529775556,89297.74175829394
5.15,71743.5467559646,61989.02784008814,86963.69200423962
5.3,70041.96014578882,60622.583940541204,84768.59369432123
5.5,67929.28562476388,58929.40885812938,82038.18594154372
5.65,66451.36310788225,57747.343266544965,80124.55872592621
5.8,65056.808027234845,56633.8922013116,78315.96016749721
6,63316.10507474367,55246.88053785367,76054.15675272928
6.15,62092.24178230634,54273.68257339876,74460.84933658497
6.3,60932.715479652186,53353.25343539827,72948.79304052351
6.45,59832.94514283886,52481.78128213455,71512.26302864472
6.6,58788.76643856867,51655.802236269876,70146.05458800518
6.75,57796.385503361016,50872.16181417888,68845.42538148776
6.88,56975.53573152176,50225.02250465395,67767.90303185012
7,56248.25073490408,49652.47416136367,66811.84862751514
7.15,55377.85185994259,48968.32139237901,65665.91059081935
7.32,54440.17299809831,48232.63158484323,64429.14616342698
7.5,53499.935173559104,47496.400060477004,63186.53124547969
7.65,52754.938760322424,46914.13586250898,62200.088521909594
7.8,52042.741093207835,46358.441816748425,61255.45874469401
8,51140.854788835306,45656.10820681259,60056.84953510635
8.2,50289.691044718296,44994.73355551072,58923.07100063315
8.4,49485.472831376355,44371.1970569567,57849.388305766784
8.6,48724.77675692424,43782.67314383073,56831.507466315845
8.8,48004.4929761249,43226.59794982541,55865.52534399603
9,47321.79043215588,42700.64022634204,54947.88630296778
9.2,46674.08662030249,42202.67603744904,54075.344514614226
9.4,46059.02120079982,41730.76667206942,53244.931069417995
9.6,45474.432900171276,41283.13930576275,52453.92519500118
9.8,44918.33923193763,40858.17002071029,51699.828993845374
10,44388.918642617915,40454.368855032146,50980.34520805777
10.2,43884.49475074335,40070.36660405477,50293.35759583498
10.4,43403.52239770693,39704.90313872743,49636.91356818418
10.6,42944.57527169255,39356.81704173994,49009.208787514915
10.8,42506.33490127677,39025.03639135875,48408.57347392576
11,42087.580844860735,38708.57054764674,47833.4602019844
11.2,41687.18192690049,38406.5028164222,47282.43300183118
11.5,41118.72361318235,37978.556769076946,46498.16051027717
11.8,40585.98405355047,37578.497332574945,45760.982045212615
12,40249.22099195207,37326.117920846904,45293.84744744234
12.2,39926.24797025929,37084.45466790254,44844.98232004742
12.5,39466.05000360449,36740.77346618817,44203.89877896465
12.8,39032.95597018756,36418.05999556669,43598.895053562585
13,38758.25698064966,36213.74592780572,43214.283813667986
13.2,38494.11987358776,36017.566587960326,42843.79967178274
13.5,38116.57178070032,35737.63896317159,42313.08397812076
13.8,37759.96034507982,35473.76856195998,41810.50423902915
14,37533.1044237505,35306.1846471156,41490.115762751244
14.2,37314.47271719574,35144.88224876286,41180.83137065914
14.5,37001.104352583825,34914.04332498837,40736.63138592981
14.8,36704.15971924978,34695.69922171148,40314.7077855937
15,36514.76777817102,34556.64381021716,40045.0790916811
15.5,36069.082308089615,34230.05483639486,39408.90965861462
16,35659.70074374131,33930.88093312705,38822.41904841326
16.5,35282.83788896483,33656.17754153938,38280.61955927757
17,34935.18565329355,33403.38139892434,37779.133641926084
17.5,34613.8428048355,33170.25312558199,37314.10586740836
18,34316.25653281867,32954.82962609388,36882.12953506032
18.5,34040.17359012094,32755.384432325343,36480.185165322255
19,33783.59925267936,32570.394509278303,36105.588699709064
19.5,33544.762692246695,32398.51234838254,35755.94767480881
20,33322.08763816034,32238.54240834639,35429.12398201774
20.5,33114.167422112776,32089.421147740017,35123.202094104476
21,32919.74367177214,31950.200038227696,34836.461851574735
21.5,32737.68805523592,31820.031061881804,34567.35506953094
22,32566.986586774838,31698.154287127447,34314.48535930135
22.5,32406.726091241933,31583.887190754718,34076.59066611887
23,32256.082494536127,31476.61545203836,33852.52811031807
23.5,32114.310664190136,31375.78499235026,33641.26078930354
24,31980.73557025774,31280.89507207622,33441.846254327
24.5,31854.744574346667,31191.49228797178,33253.426422533616
25,31735.78068555668,31107.165339732248,33075.21872286317
25.5,31623.33664755323,31027.54045562322,32906.50830583526
26,31516.949742075605,30952.27738440124,32746.641173287706
27,31320.69221901585,30813.62257858527,32451.089283487465
27.5,31230.080272385312,30749.688313456823,32314.349511372995
28,31144.03605702125,30689.02564979956,32184.333972472148
28.5,31062.260620785746,30631.416768046976,32060.614443426162
29,30984.47886971313,30576.661558691972,31942.795915797356
29.5,30910.43733523045,30524.575932253258,31830.513574222507
30,30839.90218002384,30474.990313477625,31723.430089048517
30.5,30772.657413964454,30427.748297278176,31621.233186668393
31,30708.50329529161,30382.705446942175,31523.633465547908
31.5,30647.25489548729,30339.7282177292,31430.36243002561
32,30588.7408090509,30298.692991192067,31341.17071748677
33,30479.290713117705,30221.998584258203,31174.114024468057
34,30379.010832440246,30151.800924165396,31020.794016814398
35,30286.911833818012,30087.390213406605,30879.759567086006
36,30202.133461173813,30028.150553625823,30749.74465764297
37,30123.92495196122,29973.545487268526,30629.640940991285
39,29984.667348826573,29876.420925992355,30415.388790559893
40,29922.531329105655,29833.12807775422,30319.624557096617
41,29864.77056692264,29792.907950538432,30230.5103841438
42,29810.985908785296,29755.47760279931,30147.449234289383
43.2,29751.195886404614,29713.891953456376,30055.020920784256
44.5,29691.684491222793,29672.525302672206,29962.925322552786
45.8,29637.06351115832,29634.580224568916,29878.310949490184
47.5,29572.160092805225,29572.160092805225,29777.65880012076
48.8,29526.953022813148,29526.953022813148,29707.481143524023
50,29488.259425243094,29488.259425243094,29647.368351024168
51.5,29443.581049377346,29443.581049377346,29577.904262812175
53,29402.582570424707,29402.582570424707,29514.110660481187
55,29352.972225226316,29352.972225226316,29437.568846521375
56.5,29319.122370714922,29319.122370714922,29414.133743039954
58,29287.829941921693,29287.829941921693,29392.47666952715
60,29249.656264960788,29249.656264960788,29366.06690385416
61.5,29223.407824816117,29223.407824816117,29347.913614272147
63,29198.99070442748,29196.58965308605,29331.03141438123
64.5,29176.238846785232,29161.029147558915,29315.304551982026
66,29155.0045548562,29127.826438864846,29300.63013583029
67.5,29135.156113749093,29096.778331450718,29286.916460878565
68.8,29118.983785821565,29071.471757091047,29275.744843913533
70,29104.840784779535,29049.334148655802,29265.976648891265
71.5,29088.144746033864,29023.192475108848,29254.447051856463
73.2,29070.43901217573,28995.460542358738,29242.222466939686
75,29052.977999436654,28968.102468376484,29230.16913220053
76.5,29039.351501644345,28946.74581764475,29220.764342283375
78,29026.497704768768,28926.59495291883,29211.894128706692
80,29010.463117387964,28901.450397355908,29200.830629896845
82,28995.579495049453,28878.10357816899,29190.562991955365
84,28981.739426981414,28856.38751790518,29181.01675049505
86,28968.847728208333,28836.154142307867,29172.125942176295
88,28956.81980913906,28817.271774573088,29163.831967235696
90,28945.580292974762,28799.623007977705,29156.082625541363
92,28935.061838855556,28783.102893081945,29148.831296592645
94,28925.204136526976,28767.617387539598,29142.036239432327
96,28915.953044572503,28753.08202599554,29135.65999285738
98,28907.259849275826,28739.420775129212,29129.668859848247
100,28899.08062521383,28726.565045012387,29124.032462977888
102,28891.37568194495,28714.452832896284,29118.723359856172
104,28884.109083807354,28703.02797956609,29113.71670952641
106,28877.248232001966,28692.23952168569,29108.989982247236
108,28870.763499904104,28682.0411262484,29104.522706333268
110,28864.62791400102,28672.39059546567,29100.296246746722
112,28858.81687405194,28663.249432256045,29096.2936109718
115,28850.660205890832,28650.416622073666,29090.675740735554
118,28843.11566069017,28638.544971548796,29085.47991571986
120,28838.396243629602,28631.117852363393,29082.229936860236
122,28833.906304381067,28624.051210526675,29079.138142148524
125,28827.56998133679,28614.077479146687,29074.77517813229
128,28821.672687713773,28604.7936508711,29070.71478736646
130,28817.96531404986,28598.956739106456,29068.162330137704
132,28814.424732213924,28593.38201425565,29065.724803265814
135,28809.40524278717,28585.478027617362,29062.269279886248
138,28804.7087479221,28578.081915293384,29059.036285979528
140,28801.743684659818,28573.412123337053,29056.99526883952
142,28798.90273502835,28568.937537713697,29055.03974860117
145,28794.859215372246,28562.568418766743,29052.25656507583
148,28791.05856697461,28556.581377125276,29049.640664814335
150,28788.650240310635,28552.787375396292,29047.983124896335
155,28783.031233445123,28543.93464319186,29044.115993622974
160,28777.929782583942,28535.89643795523,29040.60526433601
165,28773.284249369062,28528.57587837888,29037.40846179418
170,28769.041902126333,28521.89006179894,29034.489253279797
175,28765.157415477126,28515.767713264213,29031.81641293138
180,28761.591656656663,28510.14728303608,29029.362984172574
185,28758.310697613233,28504.97539741022,29027.105598097343
190,28755.285006145503,28500.20558984664,29025.023915492307
195,28752.488779943757,28495.797255932965,29023.100167519715
200,28749.899395400542,28491.714788185913,29021.31877561989
205,28747.496949136235,28487.926856186517,29019.66603539693
210,28745.263874839482,28484.405804814716,29018.129852470294
215,28743.184621611075,28481.127148956555,29016.699520755134
220,28741.24538278451,28478.069147411257,29015.365535559005
225,28739.43386637127,28475.212442126962,29014.11943538496
230,28737.739099987375,28472.539751567627,29012.953667511258
235,28736.15126446757,28470.035609126648,29011.861473350204
240,28734.661551445974,28467.686139182097,29010.836790328925
245,28733.262041038233,28465.47886472997,29009.8741676262
250,28731.945596447476,28463.402541608626,29008.96869357362
255,28730.705772870337,28461.447015196187,29008.11593291183
260,28729.536738528263,28459.60309616634,29007.31187240226
270,28727.39037244391,28456.217515102897,29005.83563137175
275,28726.40386714279,28454.66139586679,29005.157138408118
280,28725.46970580656,28453.187815120404,29004.514653124963
285,28724.58425023304,28451.791038437288,29003.905672205216
290,28723.74417286641,28450.46582077669,29003.327906134287
295,28722.946425507118,28449.207357218016,29002.779257658032
300,28722.188211637607,28448.011239384512,29002.257802730903
